#    mchi[GeV]       Dm[GeV]        lambda  SigmaSI[cm2]  SigmaSI_UL[cm2]       rval_DD 
   1.00000E+02   1.60191E+01   5.60000E-02   9.08000E-47      9.13000E-47   9.94524E-01 
   1.25000E+02   1.83759E+01   5.60000E-02   3.30000E-47      1.11000E-46   2.97297E-01 
   1.50000E+02   2.04750E+01   5.60000E-02   1.48000E-47      1.31000E-46   1.12977E-01 
   1.75000E+02   2.23633E+01   5.60000E-02   7.64000E-48      1.52000E-46   5.02632E-02 
   2.00000E+02   2.40636E+01   5.60000E-02   4.38000E-48      1.72000E-46   2.54651E-02 
   2.50000E+02   2.70183E+01   5.60000E-02   1.78000E-48      2.13000E-46   8.35681E-03 
   3.00000E+02   2.94580E+01   5.60000E-02   8.82000E-49      2.54000E-46   3.47244E-03 
   3.50000E+02   3.14997E+01   5.60000E-02   5.01000E-49      2.94000E-46   1.70408E-03 
   4.00000E+02   3.31758E+01   5.60000E-02   3.14000E-49      3.34000E-46   9.40120E-04 
   4.50000E+02   3.45345E+01   5.60000E-02   2.14000E-49      3.75000E-46   5.70667E-04 
   5.00000E+02   3.56290E+01   5.60000E-02   1.54000E-49      4.16000E-46   3.70192E-04 
   5.50000E+02   3.64587E+01   5.60000E-02   1.17000E-49      4.57000E-46   2.56018E-04 
   6.00000E+02   3.70589E+01   5.60000E-02   9.29000E-50      4.98000E-46   1.86546E-04 
   6.50000E+02   3.74505E+01   5.60000E-02   7.65000E-50      5.39000E-46   1.41929E-04 
   7.00000E+02   3.76452E+01   5.60000E-02   6.50000E-50      5.80000E-46   1.12069E-04 
   7.50000E+02   3.76446E+01   5.60000E-02   5.71000E-50      6.21000E-46   9.19485E-05 
   8.00000E+02   3.74960E+01   5.60000E-02   5.13000E-50      6.61000E-46   7.76097E-05 
   8.50000E+02   3.71799E+01   5.60000E-02   4.74000E-50      7.02000E-46   6.75214E-05 
   9.00000E+02   3.67323E+01   5.60000E-02   4.47000E-50      7.43000E-46   6.01615E-05 
   9.50000E+02   3.61443E+01   5.60000E-02   4.30000E-50      7.83000E-46   5.49170E-05 
   1.00000E+03   3.54524E+01   5.60000E-02   4.22000E-50      8.24000E-46   5.12136E-05 
   1.05000E+03   3.46490E+01   5.60000E-02   4.22000E-50      8.65000E-46   4.87861E-05 
   1.10000E+03   3.37476E+01   5.60000E-02   4.31000E-50      9.06000E-46   4.75717E-05 
   1.15000E+03   3.27929E+01   5.60000E-02   4.45000E-50      9.47000E-46   4.69905E-05 
   1.20000E+03   3.17462E+01   5.60000E-02   4.68000E-50      9.89000E-46   4.73205E-05 
   1.25000E+03   3.06399E+01   5.60000E-02   5.01000E-50      1.03000E-45   4.86408E-05 
   1.30000E+03   2.94990E+01   5.60000E-02   5.43000E-50      1.07000E-45   5.07477E-05 
   1.35000E+03   2.83363E+01   5.60000E-02   5.96000E-50      1.11000E-45   5.36937E-05 
   1.40000E+03   2.71439E+01   5.60000E-02   6.65000E-50      1.15000E-45   5.78261E-05 
   1.45000E+03   2.59332E+01   5.60000E-02   7.50000E-50      1.19000E-45   6.30252E-05 
   1.50000E+03   2.47304E+01   5.60000E-02   8.55000E-50      1.24000E-45   6.89516E-05 
   1.55000E+03   2.35343E+01   5.60000E-02   9.88000E-50      1.28000E-45   7.71875E-05 
   1.60000E+03   2.23491E+01   5.60000E-02   1.15000E-49      1.32000E-45   8.71212E-05 
   1.65000E+03   2.11853E+01   5.60000E-02   1.36000E-49      1.36000E-45   1.00000E-04 
   1.70000E+03   2.00677E+01   5.60000E-02   1.61000E-49      1.40000E-45   1.15000E-04 
   1.75000E+03   1.89879E+01   5.60000E-02   1.93000E-49      1.44000E-45   1.34028E-04 
   1.80000E+03   1.79643E+01   5.60000E-02   2.32000E-49      1.48000E-45   1.56757E-04 
   1.85000E+03   1.69847E+01   5.60000E-02   2.80000E-49      1.52000E-45   1.84211E-04 
   1.90000E+03   1.60401E+01   5.60000E-02   3.40000E-49      1.56000E-45   2.17949E-04 
   1.95000E+03   1.51442E+01   5.60000E-02   4.17000E-49      1.61000E-45   2.59006E-04 
   2.00000E+03   1.42985E+01   5.60000E-02   5.12000E-49      1.65000E-45   3.10303E-04 
   2.05000E+03   1.35038E+01   5.60000E-02   6.33000E-49      1.69000E-45   3.74556E-04 
   2.10000E+03   1.27490E+01   5.60000E-02   7.85000E-49      1.73000E-45   4.53757E-04 
   2.15000E+03   1.20308E+01   5.60000E-02   9.84000E-49      1.77000E-45   5.55932E-04 
   2.20000E+03   1.13549E+01   5.60000E-02   1.24000E-48      1.81000E-45   6.85083E-04 
   2.25000E+03   1.07174E+01   5.60000E-02   1.57000E-48      1.85000E-45   8.48649E-04 
   2.30000E+03   1.01143E+01   5.60000E-02   2.02000E-48      1.89000E-45   1.06878E-03 
   2.35000E+03   9.53818E+00   5.60000E-02   2.61000E-48      1.93000E-45   1.35233E-03 
   2.40000E+03   8.98566E+00   5.60000E-02   3.45000E-48      1.97000E-45   1.75127E-03 
   2.45000E+03   8.45578E+00   5.60000E-02   4.67000E-48      2.02000E-45   2.31188E-03 
   2.50000E+03   7.95033E+00   5.60000E-02   6.50000E-48      2.06000E-45   3.15534E-03 
   2.60000E+03   7.01089E+00   5.60000E-02   1.39000E-47      2.14000E-45   6.49533E-03 
   2.70000E+03   6.14663E+00   5.60000E-02   3.81000E-47      2.22000E-45   1.71622E-02 
   2.80000E+03   5.35505E+00   5.60000E-02   1.99000E-46      2.30000E-45   8.65217E-02 
   2.90000E+03   4.63425E+00   5.60000E-02   1.92000E-44      2.39000E-45   8.03347E+00 
   3.00000E+03   3.98023E+00   5.60000E-02   1.96000E-46      2.47000E-45   7.93522E-02 
   1.00000E+02   1.66844E+01   1.68797E-01   6.21000E-45      9.13000E-47   6.80175E+01 
   1.25000E+02   1.90675E+01   1.68797E-01   2.30000E-45      1.11000E-46   2.07207E+01 
   1.50000E+02   2.11914E+01   1.68797E-01   1.05000E-45      1.31000E-46   8.01527E+00 
   1.75000E+02   2.30953E+01   1.68797E-01   5.46000E-46      1.52000E-46   3.59211E+00 
   2.00000E+02   2.48123E+01   1.68797E-01   3.16000E-46      1.72000E-46   1.83721E+00 
   2.50000E+02   2.77900E+01   1.68797E-01   1.30000E-46      2.13000E-46   6.10329E-01 
   3.00000E+02   3.02487E+01   1.68797E-01   6.50000E-47      2.54000E-46   2.55906E-01 
   3.50000E+02   3.23042E+01   1.68797E-01   3.71000E-47      2.94000E-46   1.26190E-01 
   4.00000E+02   3.39913E+01   1.68797E-01   2.34000E-47      3.34000E-46   7.00599E-02 
   4.50000E+02   3.53581E+01   1.68797E-01   1.60000E-47      3.75000E-46   4.26667E-02 
   5.00000E+02   3.64581E+01   1.68797E-01   1.15000E-47      4.16000E-46   2.76442E-02 
   5.50000E+02   3.72906E+01   1.68797E-01   8.80000E-48      4.57000E-46   1.92560E-02 
   6.00000E+02   3.78908E+01   1.68797E-01   6.99000E-48      4.98000E-46   1.40361E-02 
   6.50000E+02   3.82798E+01   1.68797E-01   5.76000E-48      5.39000E-46   1.06865E-02 
   7.00000E+02   3.84698E+01   1.68797E-01   4.91000E-48      5.80000E-46   8.46552E-03 
   7.50000E+02   3.84617E+01   1.68797E-01   4.31000E-48      6.21000E-46   6.94042E-03 
   8.00000E+02   3.83043E+01   1.68797E-01   3.88000E-48      6.61000E-46   5.86989E-03 
   8.50000E+02   3.79754E+01   1.68797E-01   3.58000E-48      7.02000E-46   5.09972E-03 
   9.00000E+02   3.75135E+01   1.68797E-01   3.38000E-48      7.43000E-46   4.54913E-03 
   9.50000E+02   3.69092E+01   1.68797E-01   3.26000E-48      7.83000E-46   4.16347E-03 
   1.00000E+03   3.61991E+01   1.68797E-01   3.20000E-48      8.24000E-46   3.88350E-03 
   1.05000E+03   3.53751E+01   1.68797E-01   3.20000E-48      8.65000E-46   3.69942E-03 
   1.10000E+03   3.44521E+01   1.68797E-01   3.26000E-48      9.06000E-46   3.59823E-03 
   1.15000E+03   3.34732E+01   1.68797E-01   3.38000E-48      9.47000E-46   3.56917E-03 
   1.20000E+03   3.24006E+01   1.68797E-01   3.55000E-48      9.89000E-46   3.58948E-03 
   1.25000E+03   3.12674E+01   1.68797E-01   3.80000E-48      1.03000E-45   3.68932E-03 
   1.30000E+03   3.00982E+01   1.68797E-01   4.13000E-48      1.07000E-45   3.85981E-03 
   1.35000E+03   2.89064E+01   1.68797E-01   4.53000E-48      1.11000E-45   4.08108E-03 
   1.40000E+03   2.76837E+01   1.68797E-01   5.05000E-48      1.15000E-45   4.39130E-03 
   1.45000E+03   2.64422E+01   1.68797E-01   5.71000E-48      1.19000E-45   4.79832E-03 
   1.50000E+03   2.52083E+01   1.68797E-01   6.52000E-48      1.24000E-45   5.25806E-03 
   1.55000E+03   2.39808E+01   1.68797E-01   7.53000E-48      1.28000E-45   5.88281E-03 
   1.60000E+03   2.27643E+01   1.68797E-01   8.81000E-48      1.32000E-45   6.67424E-03 
   1.65000E+03   2.15698E+01   1.68797E-01   1.04000E-47      1.36000E-45   7.64706E-03 
   1.70000E+03   2.04226E+01   1.68797E-01   1.24000E-47      1.40000E-45   8.85714E-03 
   1.75000E+03   1.93142E+01   1.68797E-01   1.48000E-47      1.44000E-45   1.02778E-02 
   1.80000E+03   1.82635E+01   1.68797E-01   1.78000E-47      1.48000E-45   1.20270E-02 
   1.85000E+03   1.72583E+01   1.68797E-01   2.15000E-47      1.52000E-45   1.41447E-02 
   1.90000E+03   1.62897E+01   1.68797E-01   2.63000E-47      1.56000E-45   1.68590E-02 
   1.95000E+03   1.53717E+01   1.68797E-01   3.22000E-47      1.61000E-45   2.00000E-02 
   2.00000E+03   1.45058E+01   1.68797E-01   3.96000E-47      1.65000E-45   2.40000E-02 
   2.05000E+03   1.36927E+01   1.68797E-01   4.90000E-47      1.69000E-45   2.89941E-02 
   2.10000E+03   1.29210E+01   1.68797E-01   6.09000E-47      1.73000E-45   3.52023E-02 
   2.15000E+03   1.21878E+01   1.68797E-01   7.63000E-47      1.77000E-45   4.31073E-02 
   2.20000E+03   1.14984E+01   1.68797E-01   9.62000E-47      1.81000E-45   5.31492E-02 
   2.25000E+03   1.08490E+01   1.68797E-01   1.22000E-46      1.85000E-45   6.59459E-02 
   2.30000E+03   1.02350E+01   1.68797E-01   1.56000E-46      1.89000E-45   8.25397E-02 
   2.35000E+03   9.64923E+00   1.68797E-01   2.03000E-46      1.93000E-45   1.05181E-01 
   2.40000E+03   9.08793E+00   1.68797E-01   2.68000E-46      1.97000E-45   1.36041E-01 
   2.45000E+03   8.55017E+00   1.68797E-01   3.63000E-46      2.02000E-45   1.79703E-01 
   2.50000E+03   8.03754E+00   1.68797E-01   5.01000E-46      2.06000E-45   2.43204E-01 
   2.60000E+03   7.08584E+00   1.68797E-01   1.06000E-45      2.14000E-45   4.95327E-01 
   2.70000E+03   6.21133E+00   1.68797E-01   2.87000E-45      2.22000E-45   1.29279E+00 
   2.80000E+03   5.41030E+00   1.68797E-01   1.41000E-44      2.30000E-45   6.13043E+00 
   2.90000E+03   4.68168E+00   1.68797E-01   1.92000E-41      2.39000E-45   8.03347E+03 
   3.00000E+03   4.02058E+00   1.68797E-01   1.80000E-44      2.47000E-45   7.28745E+00 
   1.00000E+02   2.28190E+01   5.00000E-01   1.13000E-43      9.13000E-47   1.23768E+03 
   1.25000E+02   2.50110E+01   5.00000E-01   5.20000E-44      1.11000E-46   4.68468E+02 
   1.50000E+02   2.71143E+01   5.00000E-01   2.69000E-44      1.31000E-46   2.05344E+02 
   1.75000E+02   2.90333E+01   5.00000E-01   1.53000E-44      1.52000E-46   1.00658E+02 
   2.00000E+02   3.08118E+01   5.00000E-01   9.42000E-45      1.72000E-46   5.47674E+01 
   2.50000E+02   3.39206E+01   5.00000E-01   4.22000E-45      2.13000E-46   1.98122E+01 
   3.00000E+02   3.65193E+01   5.00000E-01   2.23000E-45      2.54000E-46   8.77953E+00 
   3.50000E+02   3.86983E+01   5.00000E-01   1.32000E-45      2.94000E-46   4.48980E+00 
   4.00000E+02   4.04926E+01   5.00000E-01   8.58000E-46      3.34000E-46   2.56886E+00 
   4.50000E+02   4.19479E+01   5.00000E-01   5.97000E-46      3.75000E-46   1.59200E+00 
   5.00000E+02   4.31175E+01   5.00000E-01   4.39000E-46      4.16000E-46   1.05529E+00 
   5.50000E+02   4.40026E+01   5.00000E-01   3.38000E-46      4.57000E-46   7.39606E-01 
   6.00000E+02   4.46331E+01   5.00000E-01   2.71000E-46      4.98000E-46   5.44177E-01 
   6.50000E+02   4.50283E+01   5.00000E-01   2.25000E-46      5.39000E-46   4.17440E-01 
   7.00000E+02   4.52069E+01   5.00000E-01   1.93000E-46      5.80000E-46   3.32759E-01 
   7.50000E+02   4.51652E+01   5.00000E-01   1.70000E-46      6.21000E-46   2.73752E-01 
   8.00000E+02   4.49551E+01   5.00000E-01   1.54000E-46      6.61000E-46   2.32980E-01 
   8.50000E+02   4.45535E+01   5.00000E-01   1.42000E-46      7.02000E-46   2.02279E-01 
   9.00000E+02   4.39979E+01   5.00000E-01   1.34000E-46      7.43000E-46   1.80350E-01 
   9.50000E+02   4.32813E+01   5.00000E-01   1.30000E-46      7.83000E-46   1.66028E-01 
   1.00000E+03   4.24417E+01   5.00000E-01   1.28000E-46      8.24000E-46   1.55340E-01 
   1.05000E+03   4.14685E+01   5.00000E-01   1.28000E-46      8.65000E-46   1.47977E-01 
   1.10000E+03   4.03864E+01   5.00000E-01   1.30000E-46      9.06000E-46   1.43488E-01 
   1.15000E+03   3.92245E+01   5.00000E-01   1.35000E-46      9.47000E-46   1.42555E-01 
   1.20000E+03   3.79529E+01   5.00000E-01   1.42000E-46      9.89000E-46   1.43579E-01 
   1.25000E+03   3.66107E+01   5.00000E-01   1.53000E-46      1.03000E-45   1.48544E-01 
   1.30000E+03   3.52207E+01   5.00000E-01   1.66000E-46      1.07000E-45   1.55140E-01 
   1.35000E+03   3.37947E+01   5.00000E-01   1.83000E-46      1.11000E-45   1.64865E-01 
   1.40000E+03   3.23253E+01   5.00000E-01   2.04000E-46      1.15000E-45   1.77391E-01 
   1.45000E+03   3.08322E+01   5.00000E-01   2.32000E-46      1.19000E-45   1.94958E-01 
   1.50000E+03   2.93409E+01   5.00000E-01   2.67000E-46      1.24000E-45   2.15323E-01 
   1.55000E+03   2.78518E+01   5.00000E-01   3.11000E-46      1.28000E-45   2.42969E-01 
   1.60000E+03   2.63720E+01   5.00000E-01   3.66000E-46      1.32000E-45   2.77273E-01 
   1.65000E+03   2.49161E+01   5.00000E-01   4.36000E-46      1.36000E-45   3.20588E-01 
   1.70000E+03   2.35133E+01   5.00000E-01   5.25000E-46      1.40000E-45   3.75000E-01 
   1.75000E+03   2.21563E+01   5.00000E-01   6.36000E-46      1.44000E-45   4.41667E-01 
   1.80000E+03   2.08696E+01   5.00000E-01   7.75000E-46      1.48000E-45   5.23649E-01 
   1.85000E+03   1.96393E+01   5.00000E-01   9.50000E-46      1.52000E-45   6.25000E-01 
   1.90000E+03   1.84576E+01   5.00000E-01   1.18000E-45      1.56000E-45   7.56410E-01 
   1.95000E+03   1.73420E+01   5.00000E-01   1.46000E-45      1.61000E-45   9.06832E-01 
   2.00000E+03   1.62954E+01   5.00000E-01   1.82000E-45      1.65000E-45   1.10303E+00 
   2.05000E+03   1.53174E+01   5.00000E-01   2.28000E-45      1.69000E-45   1.34911E+00 
   2.10000E+03   1.43962E+01   5.00000E-01   2.86000E-45      1.73000E-45   1.65318E+00 
   2.15000E+03   1.35281E+01   5.00000E-01   3.62000E-45      1.77000E-45   2.04520E+00 
   2.20000E+03   1.27184E+01   5.00000E-01   4.60000E-45      1.81000E-45   2.54144E+00 
   2.25000E+03   1.19618E+01   5.00000E-01   5.87000E-45      1.85000E-45   3.17297E+00 
   2.30000E+03   1.12524E+01   5.00000E-01   7.54000E-45      1.89000E-45   3.98942E+00 
   2.35000E+03   1.05813E+01   5.00000E-01   9.77000E-45      1.93000E-45   5.06218E+00 
   2.40000E+03   9.94354E+00   5.00000E-01   1.29000E-44      1.97000E-45   6.54822E+00 
   2.45000E+03   9.33683E+00   5.00000E-01   1.71000E-44      2.02000E-45   8.46535E+00 
   2.50000E+03   8.76265E+00   5.00000E-01   2.34000E-44      2.06000E-45   1.13592E+01 
   2.60000E+03   7.70479E+00   5.00000E-01   4.67000E-44      2.14000E-45   2.18224E+01 
   2.70000E+03   6.74323E+00   5.00000E-01   1.10000E-43      2.22000E-45   4.95495E+01 
   2.80000E+03   5.86385E+00   5.00000E-01   3.72000E-43      2.30000E-45   1.61739E+02 
   2.90000E+03   5.07016E+00   5.00000E-01   3.98000E-42      2.39000E-45   1.66527E+03 
   3.00000E+03   4.35095E+00   5.00000E-01   4.85000E-42      2.47000E-45   1.96356E+03 
   1.00000E+02   2.82856E+01   6.20000E-01   9.93000E-44      9.13000E-47   1.08762E+03 
   1.25000E+02   2.99276E+01   6.20000E-01   5.47000E-44      1.11000E-46   4.92793E+02 
   1.50000E+02   3.15622E+01   6.20000E-01   3.23000E-44      1.31000E-46   2.46565E+02 
   1.75000E+02   3.31777E+01   6.20000E-01   2.01000E-44      1.52000E-46   1.32237E+02 
   2.00000E+02   3.48092E+01   6.20000E-01   1.30000E-44      1.72000E-46   7.55814E+01 
   2.50000E+02   3.77931E+01   6.20000E-01   6.24000E-45      2.13000E-46   2.92958E+01 
   3.00000E+02   4.03962E+01   6.20000E-01   3.41000E-45      2.54000E-46   1.34252E+01 
   3.50000E+02   4.26174E+01   6.20000E-01   2.07000E-45      2.94000E-46   7.04082E+00 
   4.00000E+02   4.44758E+01   6.20000E-01   1.36000E-45      3.34000E-46   4.07186E+00 
   4.50000E+02   4.59969E+01   6.20000E-01   9.55000E-46      3.75000E-46   2.54667E+00 
   5.00000E+02   4.72288E+01   6.20000E-01   7.06000E-46      4.16000E-46   1.69712E+00 
   5.50000E+02   4.81696E+01   6.20000E-01   5.46000E-46      4.57000E-46   1.19475E+00 
   6.00000E+02   4.88464E+01   6.20000E-01   4.39000E-46      4.98000E-46   8.81526E-01 
   6.50000E+02   4.92724E+01   6.20000E-01   3.65000E-46      5.39000E-46   6.77180E-01 
   7.00000E+02   4.94717E+01   6.20000E-01   3.13000E-46      5.80000E-46   5.39655E-01 
   7.50000E+02   4.94410E+01   6.20000E-01   2.76000E-46      6.21000E-46   4.44444E-01 
   8.00000E+02   4.92244E+01   6.20000E-01   2.49000E-46      6.61000E-46   3.76702E-01 
   8.50000E+02   4.88055E+01   6.20000E-01   2.30000E-46      7.02000E-46   3.27635E-01 
   9.00000E+02   4.82173E+01   6.20000E-01   2.17000E-46      7.43000E-46   2.92059E-01 
   9.50000E+02   4.74551E+01   6.20000E-01   2.09000E-46      7.83000E-46   2.66922E-01 
   1.00000E+03   4.65562E+01   6.20000E-01   2.06000E-46      8.24000E-46   2.50000E-01 
   1.05000E+03   4.55116E+01   6.20000E-01   2.06000E-46      8.65000E-46   2.38150E-01 
   1.10000E+03   4.43485E+01   6.20000E-01   2.09000E-46      9.06000E-46   2.30684E-01 
   1.15000E+03   4.30856E+01   6.20000E-01   2.16000E-46      9.47000E-46   2.28089E-01 
   1.20000E+03   4.17050E+01   6.20000E-01   2.28000E-46      9.89000E-46   2.30536E-01 
   1.25000E+03   4.02439E+01   6.20000E-01   2.44000E-46      1.03000E-45   2.36893E-01 
   1.30000E+03   3.87218E+01   6.20000E-01   2.65000E-46      1.07000E-45   2.47664E-01 
   1.35000E+03   3.71543E+01   6.20000E-01   2.92000E-46      1.11000E-45   2.63063E-01 
   1.40000E+03   3.55371E+01   6.20000E-01   3.27000E-46      1.15000E-45   2.84348E-01 
   1.45000E+03   3.38856E+01   6.20000E-01   3.72000E-46      1.19000E-45   3.12605E-01 
   1.50000E+03   3.22276E+01   6.20000E-01   4.28000E-46      1.24000E-45   3.45161E-01 
   1.55000E+03   3.05693E+01   6.20000E-01   4.99000E-46      1.28000E-45   3.89844E-01 
   1.60000E+03   2.89143E+01   6.20000E-01   5.91000E-46      1.32000E-45   4.47727E-01 
   1.65000E+03   2.72824E+01   6.20000E-01   7.08000E-46      1.36000E-45   5.20588E-01 
   1.70000E+03   2.57060E+01   6.20000E-01   8.54000E-46      1.40000E-45   6.10000E-01 
   1.75000E+03   2.41765E+01   6.20000E-01   1.04000E-45      1.44000E-45   7.22222E-01 
   1.80000E+03   2.27233E+01   6.20000E-01   1.28000E-45      1.48000E-45   8.64865E-01 
   1.85000E+03   2.13320E+01   6.20000E-01   1.58000E-45      1.52000E-45   1.03947E+00 
   1.90000E+03   1.99975E+01   6.20000E-01   1.97000E-45      1.56000E-45   1.26282E+00 
   1.95000E+03   1.87379E+01   6.20000E-01   2.47000E-45      1.61000E-45   1.53416E+00 
   2.00000E+03   1.75586E+01   6.20000E-01   3.11000E-45      1.65000E-45   1.88485E+00 
   2.05000E+03   1.64591E+01   6.20000E-01   3.93000E-45      1.69000E-45   2.32544E+00 
   2.10000E+03   1.54280E+01   6.20000E-01   4.98000E-45      1.73000E-45   2.87861E+00 
   2.15000E+03   1.44604E+01   6.20000E-01   6.34000E-45      1.77000E-45   3.58192E+00 
   2.20000E+03   1.35619E+01   6.20000E-01   8.10000E-45      1.81000E-45   4.47514E+00 
   2.25000E+03   1.27267E+01   6.20000E-01   1.04000E-44      1.85000E-45   5.62162E+00 
   2.30000E+03   1.19472E+01   6.20000E-01   1.33000E-44      1.89000E-45   7.03704E+00 
   2.35000E+03   1.12140E+01   6.20000E-01   1.74000E-44      1.93000E-45   9.01554E+00 
   2.40000E+03   1.05210E+01   6.20000E-01   2.28000E-44      1.97000E-45   1.15736E+01 
   2.45000E+03   9.86536E+00   6.20000E-01   3.03000E-44      2.02000E-45   1.50000E+01 
   2.50000E+03   9.24740E+00   6.20000E-01   4.10000E-44      2.06000E-45   1.99029E+01 
   2.60000E+03   8.11526E+00   6.20000E-01   7.95000E-44      2.14000E-45   3.71495E+01 
   2.70000E+03   7.09278E+00   6.20000E-01   1.79000E-43      2.22000E-45   8.06306E+01 
